#Extended freq version of I2 spectra 
#Prepared from Forkey by Igor on 7-feb-05
#This version to evaluate Brillioun freq locking
#Freq(GHz) dlambda trans
  -45.06   42.51  0.8282
  -45.03   42.48  0.8355
  -45.00   42.45  0.8418
  -44.97   42.43  0.8469
  -44.94    42.4   0.851
  -44.91   42.37  0.8542
  -44.88   42.34  0.8567
  -44.85   42.31  0.8585
  -44.82   42.28  0.8598
  -44.79   42.26  0.8608
  -44.76   42.23  0.8614
  -44.73    42.2  0.8619
   -44.7   42.17  0.8622
  -44.67   42.14  0.8624
  -44.64   42.11  0.8625
  -44.61   42.09  0.8626
  -44.58   42.06  0.8626
  -44.55   42.03  0.8626
  -44.52      42  0.8626
  -44.49   41.97  0.8625
  -44.46   41.94  0.8624
  -44.43   41.92  0.8623
   -44.4   41.89  0.8621
  -44.37   41.86   0.862
  -44.34   41.83  0.8618
  -44.31    41.8  0.8617
  -44.28   41.77  0.8615
  -44.25   41.75  0.8613
  -44.22   41.72  0.8612
  -44.19   41.69   0.861
  -44.16   41.66  0.8609
  -44.13   41.63  0.8607
   -44.1    41.6  0.8606
  -44.07   41.58  0.8604
  -44.04   41.55  0.8602
  -44.01   41.52    0.86
  -43.98   41.49  0.8598
  -43.95   41.46  0.8595
  -43.92   41.43  0.8592
  -43.89   41.41  0.8589
  -43.86   41.38  0.8586
  -43.83   41.35  0.8583
   -43.8   41.32   0.858
  -43.77   41.29  0.8577
  -43.74   41.26  0.8573
  -43.71   41.24   0.857
  -43.68   41.21  0.8567
  -43.65   41.18  0.8564
  -43.62   41.15  0.8561
  -43.59   41.12  0.8558
  -43.56    41.1  0.8555
  -43.53   41.07  0.8552
   -43.5   41.04  0.8549
  -43.47   41.01  0.8547
  -43.44   40.98  0.8545
  -43.41   40.95  0.8543
  -43.38   40.93   0.854
  -43.35    40.9  0.8538
  -43.32   40.87  0.8536
  -43.29   40.84  0.8534
  -43.26   40.81  0.8532
  -43.23   40.78  0.8529
   -43.2   40.76  0.8527
  -43.17   40.73  0.8526
  -43.14    40.7  0.8524
  -43.11   40.67  0.8524
  -43.08   40.64  0.8524
  -43.05   40.61  0.8526
  -43.02   40.59  0.8528
  -42.99   40.56   0.853
  -42.96   40.53  0.8533
  -42.93    40.5  0.8535
   -42.9   40.47  0.8537
  -42.87   40.44  0.8537
  -42.84   40.42  0.8535
  -42.81   40.39  0.8532
  -42.78   40.36  0.8526
  -42.75   40.33  0.8517
  -42.72    40.3  0.8507
  -42.69   40.27  0.8494
  -42.66   40.25   0.848
  -42.63   40.22  0.8464
   -42.6   40.19  0.8446
  -42.57   40.16  0.8427
  -42.54   40.13  0.8407
  -42.51    40.1  0.8384
  -42.48   40.08  0.8359
  -42.45   40.05  0.8332
  -42.42   40.02  0.8302
  -42.39   39.99  0.8271
  -42.36   39.96  0.8238
  -42.33   39.93  0.8204
   -42.3   39.91  0.8171
  -42.27   39.88  0.8139
  -42.24   39.85  0.8111
  -42.21   39.82  0.8086
  -42.18   39.79  0.8066
  -42.15   39.76  0.8051
  -42.12   39.74   0.804
  -42.09   39.71  0.8035
  -42.06   39.68  0.8033
  -42.03   39.65  0.8035
     -42   39.62  0.8038
  -41.97    39.6  0.8044
  -41.94   39.57  0.8051
  -41.91   39.54  0.8058
  -41.88   39.51  0.8066
  -41.85   39.48  0.8075
  -41.82   39.45  0.8085
  -41.79   39.43  0.8097
  -41.76    39.4   0.811
  -41.73   39.37  0.8125
   -41.7   39.34  0.8141
  -41.67   39.31  0.8158
  -41.64   39.28  0.8175
  -41.61   39.26  0.8191
  -41.58   39.23  0.8206
  -41.55    39.2  0.8217
  -41.52   39.17  0.8226
  -41.49   39.14   0.823
  -41.46   39.11   0.823
  -41.43   39.09  0.8225
   -41.4   39.06  0.8216
  -41.37   39.03  0.8204
  -41.34      39  0.8189
  -41.31   38.97  0.8172
  -41.28   38.94  0.8155
  -41.25   38.92  0.8138
  -41.22   38.89  0.8122
  -41.19   38.86  0.8108
  -41.16   38.83  0.8096
  -41.13    38.8  0.8086
   -41.1   38.77  0.8079
  -41.07   38.75  0.8075
  -41.04   38.72  0.8074
  -41.01   38.69  0.8075
  -40.98   38.66  0.8079
  -40.95   38.63  0.8086
  -40.92    38.6  0.8096
  -40.89   38.58   0.811
  -40.86   38.55  0.8127
  -40.83   38.52  0.8148
   -40.8   38.49  0.8173
  -40.77   38.46  0.8201
  -40.74   38.43  0.8233
  -40.71   38.41  0.8268
  -40.68   38.38  0.8305
  -40.65   38.35  0.8344
  -40.62   38.32  0.8382
  -40.59   38.29   0.842
  -40.56   38.26  0.8455
  -40.53   38.24  0.8488
   -40.5   38.21  0.8518
  -40.47   38.18  0.8543
  -40.44   38.15  0.8565
  -40.41   38.12  0.8583
  -40.38    38.1  0.8596
  -40.35   38.07  0.8606
  -40.32   38.04  0.8613
  -40.29   38.01  0.8617
  -40.26   37.98  0.8618
  -40.23   37.95  0.8617
   -40.2   37.93  0.8613
  -40.17    37.9  0.8609
  -40.14   37.87  0.8603
  -40.11   37.84  0.8596
  -40.08   37.81  0.8589
  -40.05   37.78  0.8582
  -40.02   37.76  0.8575
  -39.99   37.73  0.8569
  -39.96    37.7  0.8563
  -39.93   37.67  0.8558
   -39.9   37.64  0.8554
  -39.87   37.61  0.8551
  -39.84   37.59  0.8547
  -39.81   37.56  0.8543
  -39.78   37.53  0.8538
  -39.75    37.5  0.8532
  -39.72   37.47  0.8524
  -39.69   37.44  0.8514
  -39.66   37.42  0.8501
  -39.63   37.39  0.8487
   -39.6   37.36  0.8471
  -39.57   37.33  0.8453
  -39.54    37.3  0.8433
  -39.51   37.27  0.8412
  -39.48   37.25   0.839
  -39.45   37.22  0.8366
  -39.42   37.19  0.8341
  -39.39   37.16  0.8313
  -39.36   37.13  0.8284
  -39.33    37.1  0.8253
   -39.3   37.08   0.822
  -39.27   37.05  0.8187
  -39.24   37.02  0.8153
  -39.21   36.99   0.812
  -39.18   36.96  0.8089
  -39.15   36.93  0.8062
  -39.12   36.91  0.8039
  -39.09   36.88  0.8022
  -39.06   36.85   0.801
  -39.03   36.82  0.8003
     -39   36.79  0.8002
  -38.97   36.76  0.8006
  -38.94   36.74  0.8014
  -38.91   36.71  0.8024
  -38.88   36.68  0.8038
  -38.85   36.65  0.8053
  -38.82   36.62  0.8069
  -38.79    36.6  0.8087
  -38.76   36.57  0.8106
  -38.73   36.54  0.8125
   -38.7   36.51  0.8146
  -38.67   36.48  0.8168
  -38.64   36.45   0.819
  -38.61   36.43  0.8213
  -38.58    36.4  0.8235
  -38.55   36.37  0.8256
  -38.52   36.34  0.8275
  -38.49   36.31  0.8292
  -38.46   36.28  0.8306
  -38.43   36.26  0.8316
   -38.4   36.23  0.8323
  -38.37    36.2  0.8326
  -38.34   36.17  0.8326
  -38.31   36.14  0.8321
  -38.28   36.11  0.8314
  -38.25   36.09  0.8302
  -38.22   36.06  0.8288
  -38.19   36.03  0.8272
  -38.16      36  0.8253
  -38.13   35.97  0.8233
   -38.1   35.94  0.8212
  -38.07   35.92  0.8191
  -38.04   35.89  0.8172
  -38.01   35.86  0.8154
  -37.98   35.83  0.8138
  -37.95    35.8  0.8125
  -37.92   35.77  0.8115
  -37.89   35.75  0.8107
  -37.86   35.72  0.8103
  -37.83   35.69  0.8101
   -37.8   35.66  0.8101
  -37.77   35.63  0.8103
  -37.74    35.6  0.8108
  -37.71   35.58  0.8114
  -37.68   35.55  0.8122
  -37.65   35.52  0.8133
  -37.62   35.49  0.8146
  -37.59   35.46  0.8162
  -37.56   35.43   0.818
  -37.53   35.41  0.8201
   -37.5   35.38  0.8225
  -37.47   35.35   0.825
  -37.44   35.32  0.8277
  -37.41   35.29  0.8303
  -37.38   35.26  0.8329
  -37.35   35.24  0.8353
  -37.32   35.21  0.8373
  -37.29   35.18  0.8389
  -37.26   35.15  0.8401
  -37.23   35.12  0.8407
   -37.2   35.09  0.8409
  -37.17   35.07  0.8405
  -37.14   35.04  0.8398
  -37.11   35.01  0.8387
  -37.08   34.98  0.8372
  -37.05   34.95  0.8356
  -37.02   34.93  0.8337
  -36.99    34.9  0.8317
  -36.96   34.87  0.8295
  -36.93   34.84  0.8272
   -36.9   34.81  0.8248
  -36.87   34.78  0.8221
  -36.84   34.76  0.8194
  -36.81   34.73  0.8164
  -36.78    34.7  0.8134
  -36.75   34.67  0.8103
  -36.72   34.64  0.8072
  -36.69   34.61  0.8042
  -36.66   34.59  0.8014
  -36.63   34.56  0.7988
   -36.6   34.53  0.7966
  -36.57    34.5  0.7947
  -36.54   34.47  0.7932
  -36.51   34.44   0.792
  -36.48   34.42  0.7912
  -36.45   34.39  0.7908
  -36.42   34.36  0.7907
  -36.39   34.33  0.7909
  -36.36    34.3  0.7914
  -36.33   34.27  0.7923
   -36.3   34.25  0.7935
  -36.27   34.22  0.7951
  -36.24   34.19  0.7972
  -36.21   34.16  0.7998
  -36.18   34.13  0.8028
  -36.15    34.1  0.8063
  -36.12   34.08  0.8102
  -36.09   34.05  0.8144
  -36.06   34.02  0.8188
  -36.03   33.99  0.8232
     -36   33.96  0.8275
  -35.97   33.93  0.8316
  -35.94   33.91  0.8351
  -35.91   33.88  0.8381
  -35.88   33.85  0.8403
  -35.85   33.82  0.8418
  -35.82   33.79  0.8425
  -35.79   33.76  0.8425
  -35.76   33.74  0.8417
  -35.73   33.71  0.8404
   -35.7   33.68  0.8385
  -35.67   33.65  0.8362
  -35.64   33.62  0.8335
  -35.61   33.59  0.8303
  -35.58   33.57  0.8262
  -35.55   33.54  0.8207
  -35.52   33.51  0.8129
  -35.49   33.48  0.8015
  -35.46   33.45  0.7848
  -35.43   33.43  0.7607
   -35.4    33.4   0.727
  -35.37   33.37  0.6819
  -35.34   33.34  0.6244
  -35.31   33.31  0.5549
  -35.28   33.28  0.4761
  -35.25   33.26  0.3924
  -35.22   33.23  0.3096
  -35.19    33.2  0.2335
  -35.16   33.17  0.1686
  -35.13   33.14  0.1168
   -35.1   33.11 0.07826
  -35.07   33.09 0.05107
  -35.04   33.06 0.03276
  -35.01   33.03 0.02083
  -34.98      33 0.01323
  -34.95   32.97 0.008424
  -34.92   32.94 0.00538
  -34.89   32.92 0.003435
  -34.86   32.89 0.002179
  -34.83   32.86 0.001362
   -34.8   32.83 0.0008337
  -34.77    32.8 0.0004966
  -34.74   32.77 0.0002874
  -34.71   32.75 0.0001623
  -34.68   32.72 9.019e-005
  -34.65   32.69 4.999e-005
  -34.62   32.66 2.81e-005
  -34.59   32.63 1.63e-005
  -34.56    32.6 9.928e-006
  -34.53   32.58 6.434e-006
   -34.5   32.55 4.48e-006
  -34.47   32.52 3.367e-006
  -34.44   32.49 2.731e-006
  -34.41   32.46 2.382e-006
  -34.38   32.43 2.222e-006
  -34.35   32.41 2.204e-006
  -34.32   32.38 2.311e-006
  -34.29   32.35 2.557e-006
  -34.26   32.32 2.989e-006
  -34.23   32.29 3.703e-006
   -34.2   32.26 4.895e-006
  -34.17   32.24 6.954e-006
  -34.14   32.21 1.068e-005
  -34.11   32.18 1.784e-005
  -34.08   32.15 3.238e-005
  -34.05   32.12 6.365e-005
  -34.02   32.09 0.0001341
  -33.99   32.07 0.0002988
  -33.96   32.04 0.0006904
  -33.93   32.01 0.001619
   -33.9   31.98 0.003769
  -33.87   31.95 0.008513
  -33.84   31.93 0.01831
  -33.81    31.9 0.03688
  -33.78   31.87 0.06885
  -33.75   31.84  0.1184
  -33.72   31.81  0.1871
  -33.69   31.78  0.2729
  -33.66   31.76  0.3695
  -33.63   31.73  0.4682
   -33.6    31.7  0.5607
  -33.57   31.67   0.641
  -33.54   31.64  0.7062
  -33.51   31.61   0.756
  -33.48   31.59  0.7923
  -33.45   31.56  0.8176
  -33.42   31.53  0.8346
  -33.39    31.5  0.8457
  -33.36   31.47  0.8527
  -33.33   31.44  0.8571
   -33.3   31.42  0.8597
  -33.27   31.39  0.8613
  -33.24   31.36  0.8622
  -33.21   31.33  0.8628
  -33.18    31.3  0.8631
  -33.15   31.27  0.8632
  -33.12   31.25  0.8633
  -33.09   31.22  0.8633
  -33.06   31.19  0.8632
  -33.03   31.16  0.8631
     -33   31.13   0.863
  -32.97    31.1  0.8629
  -32.94   31.08  0.8627
  -32.91   31.05  0.8625
  -32.88   31.02  0.8623
  -32.85   30.99   0.862
  -32.82   30.96  0.8617
  -32.79   30.93  0.8612
  -32.76   30.91  0.8605
  -32.73   30.88  0.8596
   -32.7   30.85  0.8582
  -32.67   30.82   0.856
  -32.64   30.79  0.8529
  -32.61   30.76  0.8483
  -32.58   30.74  0.8416
  -32.55   30.71  0.8322
  -32.52   30.68  0.8192
  -32.49   30.65  0.8016
  -32.46   30.62  0.7785
  -32.43   30.59  0.7492
   -32.4   30.57  0.7132
  -32.37   30.54  0.6708
  -32.34   30.51  0.6226
  -32.31   30.48  0.5702
  -32.28   30.45  0.5156
  -32.25   30.43  0.4612
  -32.22    30.4  0.4092
  -32.19   30.37  0.3617
  -32.16   30.34  0.3198
  -32.13   30.31  0.2843
   -32.1   30.28  0.2552
  -32.07   30.26  0.2319
  -32.04   30.23  0.2137
  -32.01    30.2  0.1993
  -31.98   30.17  0.1875
  -31.95   30.14  0.1769
  -31.92   30.11  0.1661
  -31.89   30.09  0.1539
  -31.86   30.06  0.1396
  -31.83   30.03  0.1231
   -31.8      30   0.105
  -31.77   29.97  0.0864
  -31.74   29.94 0.06851
  -31.71   29.92 0.05242
  -31.68   29.89 0.03878
  -31.65   29.86 0.02779
  -31.62   29.83  0.0193
  -31.59    29.8 0.01298
  -31.56   29.77 0.008436
  -31.53   29.75 0.005284
   -31.5   29.72 0.003182
  -31.47   29.69 0.001842
  -31.44   29.66 0.001028
  -31.41   29.63 0.0005581
  -31.38    29.6 0.0002984
  -31.35   29.58 0.00016
  -31.32   29.55 8.788e-005
  -31.29   29.52 5.061e-005
  -31.26   29.49 3.122e-005
  -31.23   29.46 2.101e-005
   -31.2   29.43 1.561e-005
  -31.17   29.41 1.289e-005
  -31.14   29.38 1.18e-005
  -31.11   29.35 1.189e-005
  -31.08   29.32 1.304e-005
  -31.05   29.29 1.535e-005
  -31.02   29.26 1.912e-005
  -30.99   29.24 2.497e-005
  -30.96   29.21 3.393e-005
  -30.93   29.18 4.788e-005
   -30.9   29.15 7.028e-005
  -30.87   29.12 0.0001077
  -30.84   29.09 0.000173
  -30.81   29.07 0.0002921
  -30.78   29.04 0.000518
  -30.75   29.01 0.0009605
  -30.72   28.98 0.001844
  -30.69   28.95 0.003617
  -30.66   28.93 0.007131
  -30.63    28.9 0.01389
   -30.6   28.87 0.02628
  -30.57   28.84  0.0476
  -30.54   28.81  0.0816
  -30.51   28.78  0.1314
  -30.48   28.76  0.1979
  -30.45   28.73  0.2792
  -30.42    28.7    0.37
  -30.39   28.67  0.4631
  -30.36   28.64  0.5516
  -30.33   28.61  0.6298
   -30.3   28.59  0.6949
  -30.27   28.56   0.746
  -30.24   28.53  0.7844
  -30.21    28.5  0.8119
  -30.18   28.47  0.8309
  -30.15   28.44  0.8436
  -30.12   28.42  0.8518
  -30.09   28.39   0.857
  -30.06   28.36  0.8602
  -30.03   28.33   0.862
     -30    28.3  0.8631
  -29.97   28.27  0.8637
  -29.94   28.25   0.864
  -29.91   28.22  0.8641
  -29.88   28.19  0.8642
  -29.85   28.16  0.8642
  -29.82   28.13  0.8641
  -29.79    28.1  0.8641
  -29.76   28.08   0.864
  -29.73   28.05  0.8639
   -29.7   28.02  0.8639
  -29.67   27.99  0.8638
  -29.64   27.96  0.8637
  -29.61   27.93  0.8637
  -29.58   27.91  0.8636
  -29.55   27.88  0.8635
  -29.52   27.85  0.8635
  -29.49   27.82  0.8634
  -29.46   27.79  0.8634
  -29.43   27.76  0.8633
   -29.4   27.74  0.8633
  -29.37   27.71  0.8632
  -29.34   27.68  0.8631
  -29.31   27.65  0.8631
  -29.28   27.62   0.863
  -29.25   27.59  0.8629
  -29.22   27.57  0.8629
  -29.19   27.54  0.8628
  -29.16   27.51  0.8628
  -29.13   27.48  0.8628
   -29.1   27.45  0.8628
  -29.07   27.43  0.8628
  -29.04    27.4  0.8628
  -29.01   27.37  0.8629
  -28.98   27.34   0.863
  -28.95   27.31  0.8631
  -28.92   27.28  0.8632
  -28.89   27.26  0.8634
  -28.86   27.23  0.8635
  -28.83    27.2  0.8637
   -28.8   27.17  0.8638
  -28.77   27.14  0.8639
  -28.74   27.11  0.8641
  -28.71   27.09  0.8642
  -28.68   27.06  0.8643
  -28.65   27.03  0.8644
  -28.62      27  0.8645
  -28.59   26.97  0.8646
  -28.56   26.94  0.8646
  -28.53   26.92  0.8647
   -28.5   26.89  0.8647
  -28.47   26.86  0.8648
  -28.44   26.83  0.8648
  -28.41    26.8  0.8648
  -28.38   26.77  0.8648
  -28.35   26.75  0.8648
  -28.32   26.72  0.8648
  -28.29   26.69  0.8648
  -28.26   26.66  0.8648
  -28.23   26.63  0.8648
   -28.2    26.6  0.8648
  -28.17   26.58  0.8648
  -28.14   26.55  0.8648
  -28.11   26.52  0.8648
  -28.08   26.49  0.8648
  -28.05   26.46  0.8648
  -28.02   26.43  0.8648
  -27.99   26.41  0.8647
  -27.96   26.38  0.8647
  -27.93   26.35  0.8647
   -27.9   26.32  0.8647
  -27.87   26.29  0.8647
  -27.84   26.26  0.8647
  -27.81   26.24  0.8647
  -27.78   26.21  0.8646
  -27.75   26.18  0.8646
  -27.72   26.15  0.8646
  -27.69   26.12  0.8646
  -27.66   26.09  0.8646
  -27.63   26.07  0.8646
   -27.6   26.04  0.8645
  -27.57   26.01  0.8645
  -27.54   25.98  0.8645
  -27.51   25.95  0.8645
  -27.48   25.92  0.8645
  -27.45    25.9  0.8645
  -27.42   25.87  0.8645
  -27.39   25.84  0.8645
  -27.36   25.81  0.8645
  -27.33   25.78  0.8644
   -27.3   25.76  0.8644
  -27.27   25.73  0.8644
  -27.24    25.7  0.8644
  -27.21   25.67  0.8644
  -27.18   25.64  0.8644
  -27.15   25.61  0.8644
  -27.12   25.59  0.8644
  -27.09   25.56  0.8644
  -27.06   25.53  0.8644
  -27.03    25.5  0.8644
     -27   25.47  0.8644
  -26.97   25.44  0.8644
  -26.94   25.42  0.8644
  -26.91   25.39  0.8644
  -26.88   25.36  0.8643
  -26.85   25.33  0.8643
  -26.82    25.3  0.8643
  -26.79   25.27  0.8643
  -26.76   25.25  0.8643
  -26.73   25.22  0.8643
   -26.7   25.19  0.8643
  -26.67   25.16  0.8643
  -26.64   25.13  0.8643
  -26.61    25.1  0.8643
  -26.58   25.08  0.8643
  -26.55   25.05  0.8643
  -26.52   25.02  0.8643
  -26.49   24.99  0.8644
  -26.46   24.96  0.8644
  -26.43   24.93  0.8644
   -26.4   24.91  0.8644
  -26.37   24.88  0.8645
  -26.34   24.85  0.8645
  -26.31   24.82  0.8645
  -26.28   24.79  0.8646
  -26.25   24.76  0.8646
  -26.22   24.74  0.8646
  -26.19   24.71  0.8647
  -26.16   24.68  0.8647
  -26.13   24.65  0.8647
   -26.1   24.62  0.8648
  -26.07   24.59  0.8648
  -26.04   24.57  0.8648
  -26.01   24.54  0.8648
  -25.98   24.51  0.8648
  -25.95   24.48  0.8648
  -25.92   24.45  0.8648
  -25.89   24.42  0.8649
  -25.86    24.4  0.8649
  -25.83   24.37  0.8649
   -25.8   24.34  0.8649
  -25.77   24.31  0.8649
  -25.74   24.28  0.8649
  -25.71   24.26  0.8649
  -25.68   24.23  0.8649
  -25.65    24.2  0.8649
  -25.62   24.17  0.8649
  -25.59   24.14  0.8649
  -25.56   24.11  0.8649
  -25.53   24.09  0.8649
   -25.5   24.06  0.8649
  -25.47   24.03  0.8649
  -25.44      24  0.8649
  -25.41   23.97  0.8649
  -25.38   23.94  0.8649
  -25.35   23.92  0.8649
  -25.32   23.89  0.8649
  -25.29   23.86  0.8649
  -25.26   23.83  0.8649
  -25.23    23.8  0.8649
   -25.2   23.77  0.8649
  -25.17   23.75  0.8649
  -25.14   23.72  0.8649
  -25.11   23.69  0.8649
  -25.08   23.66  0.8649
  -25.05   23.63  0.8649
  -25.02    23.6  0.8649
  -24.99   23.58  0.8649
  -24.96   23.55  0.8649
  -24.93   23.52  0.8649
   -24.9   23.49  0.8649
  -24.87   23.46  0.8649
  -24.84   23.43  0.8649
  -24.81   23.41  0.8649
  -24.78   23.38  0.8649
  -24.75   23.35  0.8649
  -24.72   23.32  0.8649
  -24.69   23.29  0.8649
  -24.66   23.26  0.8649
  -24.63   23.24  0.8649
   -24.6   23.21  0.8649
  -24.57   23.18  0.8649
  -24.54   23.15  0.8649
  -24.51   23.12  0.8649
  -24.48   23.09  0.8649
  -24.45   23.07  0.8649
  -24.42   23.04  0.8649
  -24.39   23.01  0.8649
  -24.36   22.98  0.8649
  -24.33   22.95  0.8649
   -24.3   22.92  0.8649
  -24.27    22.9  0.8649
  -24.24   22.87  0.8649
  -24.21   22.84  0.8649
  -24.18   22.81  0.8649
  -24.15   22.78  0.8649
  -24.12   22.76  0.8649
  -24.09   22.73  0.8649
  -24.06    22.7  0.8649
  -24.03   22.67  0.8649
     -24   22.64  0.8649
  -23.97   22.61  0.8649
  -23.94   22.59  0.8649
  -23.91   22.56  0.8649
  -23.88   22.53  0.8649
  -23.85    22.5  0.8649
  -23.82   22.47  0.8649
  -23.79   22.44  0.8649
  -23.76   22.42  0.8649
  -23.73   22.39  0.8649
   -23.7   22.36  0.8649
  -23.67   22.33  0.8649
  -23.64    22.3  0.8649
  -23.61   22.27  0.8649
  -23.58   22.25  0.8649
  -23.55   22.22  0.8649
  -23.52   22.19  0.8649
  -23.49   22.16  0.8649
  -23.46   22.13  0.8649
  -23.43    22.1  0.8649
   -23.4   22.08  0.8649
  -23.37   22.05  0.8649
  -23.34   22.02  0.8649
  -23.31   21.99  0.8649
  -23.28   21.96  0.8649
  -23.25   21.93  0.8649
  -23.22   21.91  0.8649
  -23.19   21.88  0.8649
  -23.16   21.85  0.8649
  -23.13   21.82  0.8649
   -23.1   21.79  0.8649
  -23.07   21.76  0.8649
  -23.04   21.74  0.8649
  -23.01   21.71  0.8649
  -22.98   21.68  0.8649
  -22.95   21.65  0.8649
  -22.92   21.62  0.8649
  -22.89   21.59  0.8649
  -22.86   21.57  0.8649
  -22.83   21.54  0.8649
   -22.8   21.51  0.8649
  -22.77   21.48  0.8649
  -22.74   21.45  0.8649
  -22.71   21.42  0.8649
  -22.68    21.4  0.8649
  -22.65   21.37  0.8649
  -22.62   21.34  0.8649
  -22.59   21.31  0.8649
  -22.56   21.28  0.8649
  -22.53   21.26  0.8649
   -22.5   21.23  0.8649
  -22.47    21.2  0.8649
  -22.44   21.17  0.8649
  -22.41   21.14  0.8648
  -22.38   21.11  0.8648
  -22.35   21.09  0.8648
  -22.32   21.06  0.8648
  -22.29   21.03  0.8648
  -22.26      21  0.8648
  -22.23   20.97  0.8647
   -22.2   20.94  0.8646
  -22.17   20.92  0.8646
  -22.14   20.89  0.8645
  -22.11   20.86  0.8644
  -22.08   20.83  0.8642
  -22.05    20.8   0.864
  -22.02   20.77  0.8638
  -21.99   20.75  0.8636
  -21.96   20.72  0.8634
  -21.93   20.69  0.8631
   -21.9   20.66  0.8628
  -21.87   20.63  0.8624
  -21.84    20.6  0.8621
  -21.81   20.58  0.8617
  -21.78   20.55  0.8613
  -21.75   20.52  0.8609
  -21.72   20.49  0.8605
  -21.69   20.46    0.86
  -21.66   20.43  0.8595
  -21.63   20.41  0.8589
   -21.6   20.38  0.8583
  -21.57   20.35  0.8576
  -21.54   20.32  0.8568
  -21.51   20.29  0.8559
  -21.48   20.26  0.8549
